190	312.29
191	312.12
192	311.94
193	311.74
194	311.52
195	311.29
196	311.05
197	310.78
198	310.51
199	310.21
200	309.90
201	309.58
202	309.23
203	308.88
204	308.50
205	308.12
206	307.71
207	307.29
208	306.86
209	306.41
210	305.94
211	305.46
212	304.96
213	304.45
214	303.92
215	303.37
216	302.82
217	302.24
218	301.65
219	301.05
220	300.43
221	299.79
222	299.14
223	298.48
224	297.80
225	297.10
226	296.39
227	295.67
228	294.93
229	294.18
230	293.41
231	292.63
232	291.83
233	291.02
234	290.19
235	289.35
236	288.50
237	287.63
238	286.75
239	285.85
240	284.94
241	284.02
242	283.08
243	282.13
244	281.16
245	280.19
246	279.20
247	278.19
248	277.17
249	276.14
250	275.10
251	274.04
252	272.98
253	271.89
254	270.80
255	269.69
256	268.58
257	267.45
258	266.30
259	265.15
260	263.99
261	262.81
262	261.62
263	260.42
264	259.21
265	257.99
266	256.76
267	255.51
268	254.26
269	253.00
270	251.72
271	250.44
272	249.14
273	247.84
274	246.52
275	245.20
276	243.87
277	242.53
278	241.18
279	239.82
280	238.45
281	237.07
282	235.69
283	234.30
284	232.90
285	231.49
286	230.08
287	228.65
288	227.22
289	225.79
290	224.34
291	222.89
292	221.44
293	219.98
294	218.51
295	217.03
296	215.56
297	214.07
298	212.58
299	211.09
300	209.59
301	208.08
302	206.58
303	205.06
304	203.55
305	202.03
306	200.51
307	198.98
308	197.45
309	195.92
310	194.38
311	192.85
312	191.31
313	189.77
314	188.23
315	186.68
316	185.14
317	183.59
318	182.04
319	180.50
320	178.95
321	177.40
322	175.85
323	174.30
324	172.76
325	171.21
326	169.66
327	168.12
328	166.58
329	165.03
330	163.49
331	161.96
332	160.42
333	158.89
334	157.35
335	155.83
336	154.30
337	152.78
338	151.26
339	149.74
340	148.23
341	146.72
342	145.21
343	143.71
344	142.21
345	140.71
346	139.21
347	137.72
348	136.23
349	134.74
350	133.26
351	131.77
352	130.28
353	128.79
354	127.29
355	125.78
356	124.26
357	122.73
358	121.17
359	119.58
360	117.96
361	116.30
362	114.57
363	112.77
364	110.89
365	108.89
366	106.76
367	104.46
368	101.98
369	99.27
370	96.29
371	93.02
372	89.40
373	85.41
374	81.03
375	76.25
376	71.09
377	65.58
378	59.82
379	53.91
380	47.99
381	42.19
382	36.67
383	31.53
384	26.87
385	22.74
386	19.15
387	16.09
388	13.52
389	11.40
390	9.67
391	8.27
392	7.16
393	6.28
394	5.58
395	5.05
396	4.64
397	4.33
398	4.11
399	3.95
400	3.84
401	3.77
402	3.73
403	3.72
404	3.73
405	3.76
406	3.81
407	3.86
408	3.92
409	3.99
410	4.07
411	4.15
412	4.24
413	4.33
414	4.42
415	4.52
416	4.62
417	4.72
418	4.83
419	4.94
420	5.05
421	5.16
422	5.28
423	5.40
424	5.52
425	5.64
426	5.77
427	5.89
428	6.02
429	6.16
430	6.29
431	6.43
432	6.57
433	6.71
434	6.86
435	7.00
436	7.15
437	7.31
438	7.46
439	7.62
440	7.78
441	7.94
442	8.11
443	8.28
444	8.45
445	8.63
446	8.80
447	8.98
448	9.17
449	9.35
450	9.54
451	9.74
452	9.93
453	10.13
454	10.33
455	10.54
456	10.74
457	10.96
458	11.17
459	11.39
460	11.61
461	11.83
462	12.06
463	12.29
464	12.52
465	12.76
466	13.00
467	13.25
468	13.50
469	13.75
470	14.00
471	14.26
472	14.52
473	14.79
474	15.06
475	15.33
476	15.61
477	15.89
478	16.17
479	16.46
480	16.75
481	17.04
482	17.34
483	17.64
484	17.95
485	18.26
486	18.57
487	18.89
488	19.21
489	19.54
490	19.87
491	20.20
492	20.54
493	20.88
494	21.22
495	21.57
496	21.92
497	22.28
498	22.64
499	23.01
500	23.37
501	23.75
502	24.12
503	24.50
504	24.89
505	25.28
506	25.67
507	26.06
508	26.46
509	26.87
510	27.28
511	27.69
512	28.11
513	28.53
514	28.95
515	29.38
516	29.81
517	30.25
518	30.69
519	31.13
520	31.58
521	32.03
522	32.49
523	32.95
524	33.41
525	33.88
526	34.35
527	34.82
528	35.30
529	35.78
530	36.27
531	36.76
532	37.25
533	37.75
534	38.25
535	38.76
536	39.27
537	39.78
538	40.29
539	40.81
540	41.34
541	41.86
542	42.39
543	42.93
544	43.47
545	44.01
546	44.55
547	45.10
548	45.65
549	46.20
550	46.76
551	47.32
552	47.88
553	48.45
554	49.02
555	49.59
556	50.17
557	50.75
558	51.33
559	51.92
560	52.50
561	53.10
562	53.69
563	54.29
564	54.89
565	55.49
566	56.09
567	56.70
568	57.31
569	57.92
570	58.54
571	59.16
572	59.78
573	60.40
574	61.02
575	61.65
576	62.28
577	62.91
578	63.55
579	64.18
580	64.82
581	65.46
582	66.10
583	66.75
584	67.39
585	68.04
586	68.69
587	69.34
588	70.00
589	70.65
590	71.31
591	71.97
592	72.63
593	73.29
594	73.95
595	74.62
596	75.28
597	75.95
598	76.62
599	77.29
600	77.96
601	78.63
602	79.31
603	79.98
604	80.66
605	81.33
606	82.01
607	82.69
608	83.37
609	84.05
610	84.73
611	85.41
612	86.10
613	86.78
614	87.46
615	88.15
616	88.84
617	89.52
618	90.21
619	90.90
620	91.58
621	92.27
622	92.96
623	93.65
624	94.34
625	95.03
626	95.72
627	96.41
628	97.10
629	97.80
630	98.49
631	99.18
632	99.87
633	100.56
634	101.26
635	101.95
636	102.64
637	103.34
638	104.03
639	104.72
640	105.41
641	106.11
642	106.80
643	107.49
644	108.19
645	108.88
646	109.57
647	110.27
648	110.96
649	111.65
650	112.35
651	113.04
652	113.73
653	114.42
654	115.12
655	115.81
656	116.50
657	117.20
658	117.89
659	118.58
660	119.27
661	119.96
662	120.66
663	121.35
664	122.04
665	122.73
666	123.42
667	124.12
668	124.81
669	125.50
670	126.19
671	126.88
672	127.57
673	128.27
674	128.96
675	129.65
676	130.34
677	131.03
678	131.72
679	132.41
680	133.11
681	133.80
682	134.49
683	135.18
684	135.87
685	136.57
686	137.26
687	137.95
688	138.64
689	139.34
690	140.03
691	140.72
692	141.41
693	142.11
694	142.80
695	143.50
696	144.19
697	144.88
698	145.58
699	146.27
700	146.97
701	147.67
702	148.36
703	149.06
704	149.76
705	150.45
706	151.15
707	151.85
708	152.55
709	153.25
710	153.95
711	154.65
712	155.35
713	156.05
714	156.75
715	157.45
716	158.15
717	158.86
718	159.56
719	160.26
720	160.97
721	161.68
722	162.38
723	163.09
724	163.79
725	164.50
726	165.21
727	165.92
728	166.63
729	167.34
730	168.05
731	168.76
732	169.47
733	170.19
734	170.90
735	171.61
736	172.33
737	173.04
738	173.76
739	174.48
740	175.19
741	175.91
742	176.63
743	177.35
744	178.07
745	178.79
746	179.51
747	180.23
748	180.95
749	181.67
750	182.40
751	183.12
752	183.84
753	184.57
754	185.29
755	186.02
756	186.74
757	187.47
758	188.19
759	188.92
760	189.65
761	190.37
762	191.10
763	191.83
764	192.56
765	193.29
766	194.01
767	194.74
768	195.47
769	196.20
770	196.93
771	197.66
772	198.39
773	199.11
774	199.84
775	200.57
776	201.30
777	202.03
778	202.76
779	203.48
780	204.21
781	204.94
782	205.66
783	206.39
784	207.12
785	207.84
786	208.57
787	209.29
788	210.01
789	210.74
790	211.46
791	212.18
792	212.90
793	213.62
794	214.34
795	215.06
796	215.78
797	216.50
798	217.21
799	217.93
800	218.64
801	219.35
802	220.06
803	220.77
804	221.48
805	222.19
806	222.89
807	223.60
808	224.30
809	225.00
810	225.70
811	226.40
812	227.10
813	227.79
814	228.49
815	229.18
816	229.87
817	230.56
818	231.25
819	231.93
820	232.61
821	233.29
822	233.97
823	234.65
824	235.32
825	236.00
826	236.67
827	237.34
828	238.00
829	238.67
830	239.33
831	239.99
832	240.64
833	241.30
834	241.95
835	242.60
836	243.25
837	243.89
838	244.53
839	245.17
840	245.81
841	246.45
842	247.08
843	247.71
844	248.34
845	248.96
846	249.58
847	250.20
848	250.82
849	251.43
850	252.04
851	252.65
852	253.26
853	253.86
854	254.46
855	255.06
856	255.65
857	256.25
858	256.84
859	257.42
860	258.01
861	258.59
862	259.17
863	259.74
864	260.32
865	260.89
866	261.45
867	262.02
868	262.58
869	263.14
870	263.70
871	264.25
872	264.80
873	265.35
874	265.90
875	266.44
876	266.98
877	267.52
878	268.06
879	268.59
880	269.12
881	269.65
882	270.18
883	270.70
884	271.22
885	271.74
886	272.26
887	272.77
888	273.28
889	273.79
890	274.30
891	274.81
892	275.31
893	275.81
894	276.31
895	276.81
896	277.30
897	277.80
898	278.29
899	278.78
900	279.26
901	279.75
902	280.23
903	280.72
904	281.20
905	281.67
906	282.15
907	282.63
908	283.10
909	283.57
910	284.04
911	284.51
912	284.98
913	285.45
914	285.91
915	286.37
916	286.84
917	287.30
918	287.76
919	288.22
920	288.67
921	289.13
922	289.59
923	290.04
924	290.49
925	290.94
926	291.40
927	291.85
928	292.30
929	292.74
930	293.19
931	293.64
932	294.08
933	294.53
934	294.97
935	295.42
936	295.86
937	296.30
938	296.74
939	297.18
940	297.62
941	298.06
942	298.50
943	298.93
944	299.37
945	299.81
946	300.24
947	300.68
948	301.11
949	301.54
950	301.98
951	302.41
952	302.84
953	303.27
954	303.70
955	304.12
956	304.55
957	304.98
958	305.40
959	305.83
960	306.25
961	306.67
962	307.09
963	307.51
964	307.93
965	308.35
966	308.77
967	309.18
968	309.60
969	310.01
970	310.42
971	310.83
972	311.23
973	311.64
974	312.04
975	312.45
976	312.85
977	313.24
978	313.64
979	314.03
980	314.42
981	314.81
982	315.20
983	315.58
984	315.96
985	316.34
986	316.72
987	317.09
988	317.46
989	317.82
990	318.19
991	318.55
992	318.90
993	319.25
994	319.60
995	319.94
996	320.28
997	320.62
998	320.95
999	321.28
1000	321.60
1001	321.92
1002	322.23
1003	322.54
1004	322.84
1005	323.13
1006	323.42
1007	323.71
1008	323.99
1009	324.26
1010	324.53
1011	324.79
1012	325.04
1013	325.29
1014	325.53
1015	325.76
1016	325.99
1017	326.21
1018	326.42
1019	326.62
1020	326.82
1021	327.01
1022	327.19
1023	327.36
1024	327.52
1025	327.67
1026	327.82
1027	327.95
1028	328.08
1029	328.20
1030	328.30
1031	328.40
1032	328.49
1033	328.57
1034	328.63
1035	328.69
1036	328.73
1037	328.77
1038	328.79
1039	328.80
1040	328.81
1041	328.79
1042	328.77
1043	328.74
1044	328.69
1045	328.63
1046	328.56
1047	328.48
1048	328.38
1049	328.27
1050	328.15
1051	328.01
1052	327.86
1053	327.70
1054	327.53
1055	327.34
1056	327.13
1057	326.91
1058	326.68
1059	326.43
1060	326.17
1061	325.90
1062	325.61
1063	325.30
1064	324.98
1065	324.65
1066	324.29
1067	323.93
1068	323.55
1069	323.15
1070	322.74
1071	322.31
1072	321.86
1073	321.40
1074	320.93
1075	320.44
1076	319.93
1077	319.40
1078	318.86
1079	318.31
1080	317.73
1081	317.14
1082	316.54
1083	315.91
1084	315.27
1085	314.62
1086	313.95
1087	313.26
1088	312.55
1089	311.83
1090	311.09
1091	310.33
1092	309.56
1093	308.77
1094	307.96
1095	307.14
1096	306.30
1097	305.45
1098	304.57
1099	303.69
1100	302.78
